v/(nD)	v/(ΩR)	Ct	Cp	Cs	Tc	Pc	η	η*	stalled	v	rpm	Power	Thrust	Torque
[-]	[-]	[-]	[-]	[-]	[-]	[-]	[%]	[%]	[%]	[m/s]	[1/min]	[MW]	[kN]	[kNm]
0.000	0.000	0.028994	0.856335	0.000032	9.999999	9.999999	0.00	0.02	98.00 !	0.00	2400	2.959	1.174	11.772
0.100	0.032	0.013035	0.231581	0.133986	3.319459	9.999999	0.56	64.86	98.00	8.53	2400	0.800	0.528	3.184
0.200	0.064	0.018451	0.274934	0.258931	1.174638	9.999999	1.34	80.63	98.00	17.07	2400	0.950	0.747	3.780
0.300	0.095	0.023005	0.304598	0.380519	0.650904	9.999999	2.27	87.27	98.00	25.60	2400	1.052	0.931	4.187
0.400	0.127	0.026917	0.331636	0.498801	0.428391	9.999999	3.25	90.79	98.00	34.14	2400	1.146	1.090	4.559
0.500	0.159	0.029935	0.356145	0.614674	0.304916	7.255326	4.20	93.00	98.00	42.67	2400	1.231	1.212	4.896
0.600	0.191	0.033086	0.384271	0.726480	0.234039	4.530273	5.17	94.34	98.00	51.21	2400	1.328	1.339	5.283
0.700	0.223	0.035062	0.409830	0.836715	0.182214	3.042634	5.99	95.38	89.00	59.74	2400	1.416	1.419	5.634
0.800	0.255	0.036239	0.435271	0.944796	0.144190	2.164860	6.66	96.18	89.00	68.28	2400	1.504	1.467	5.984
0.900	0.286	0.037100	0.461554	1.050504	0.116635	1.612262	7.23	96.78	89.00	76.81	2400	1.595	1.502	6.345
1.000	0.318	0.037387	0.488872	1.153881	0.095204	1.244903	7.65	97.26	87.00	85.34	2400	1.689	1.514	6.721
1.100	0.350	0.037433	0.517094	1.255101	0.078779	0.989308	7.96	97.63	87.00	93.88	2400	1.787	1.515	7.109
1.200	0.382	0.037170	0.546957	1.353912	0.065731	0.806027	8.15	97.94	87.00	102.41	2400	1.890	1.505	7.519
1.300	0.414	0.036979	0.578022	1.450623	0.055719	0.669969	8.32	98.17	85.00	110.95	2400	1.997	1.497	7.946
1.400	0.446	0.036331	0.610744	1.545099	0.047202	0.566781	8.33	98.38	85.00	119.48	2400	2.110	1.471	8.396
1.500	0.477	0.036064	0.644959	1.637513	0.040816	0.486630	8.39	98.54	85.00	128.02	2400	2.228	1.460	8.867
1.600	0.509	0.035657	0.681559	1.727505	0.035469	0.423725	8.37	98.67	83.00	136.55	2400	2.355	1.444	9.370
1.620	0.516	0.035516	0.689127	1.745240	0.034461	0.412757	8.35	98.70	83.00	138.26	2400	2.381	1.438	9.474
1.640	0.522	0.035473	0.696494	1.763033	0.033585	0.402093	8.35	98.72	83.00	139.96	2400	2.406	1.436	9.575
1.740	0.554	0.035510	0.735459	1.850281	0.029867	0.355509	8.40	98.81	83.00	148.50	2400	2.541	1.438	10.111
1.840	0.586	0.035332	0.776872	1.935299	0.026575	0.317567	8.37	98.89	83.00	157.03	2400	2.684	1.430	10.680
1.860	0.592	0.035509	0.785443	1.952046	0.026137	0.310825	8.41	98.90	83.00	158.74	2400	2.714	1.438	10.798
1.960	0.624	0.035976	0.829021	2.034899	0.023847	0.280374	8.51	98.95	80.00	167.27	2400	2.864	1.456	11.397
2.060	0.656	0.036628	0.876660	2.114954	0.021980	0.255370	8.61	98.99	80.00	175.81	2400	3.029	1.483	12.052
2.160	0.688	0.038637	0.927675	2.192677	0.021088	0.234409	9.00	98.98	80.00	184.34	2400	3.205	1.564	12.753
2.260	0.719	0.043799	0.993864	2.262784	0.021837	0.219251	9.96	98.90	80.00	192.88	2400	3.434	1.773	13.663
2.360	0.751	0.048738	1.060753	2.332326	0.022284	0.205503	10.84	98.82	77.00	201.41	2400	3.665	1.973	14.583
2.460	0.783	0.053335	1.129335	2.400880	0.022443	0.193178	11.62	98.76	77.00	209.95	2400	3.902	2.159	15.525
2.560	0.815	0.057794	1.199004	2.468743	0.022457	0.181987	12.34	98.70	77.00	218.48	2400	4.143	2.340	16.483
2.660	0.847	0.062060	1.269553	2.536013	0.022335	0.171769	13.00	98.65	73.00	227.02	2400	4.386	2.512	17.453
2.760	0.879	0.066006	1.341517	2.602495	0.022065	0.162483	13.58	98.61	73.00	235.55	2400	4.635	2.672	18.442
2.860	0.910	0.070335	1.413337	2.668805	0.021897	0.153847	14.23	98.56	73.00	244.08	2400	4.883	2.847	19.430
2.960	0.942	0.074182	1.487312	2.734081	0.021560	0.146038	14.76	98.51	73.00	252.62	2400	5.139	3.003	20.447
3.060	0.974	0.078464	1.559987	2.799608	0.021339	0.138643	15.39	98.47	69.00	261.15	2400	5.390	3.177	21.446
3.160	1.006	0.082466	1.634562	2.864223	0.021030	0.131911	15.94	98.42	69.00	269.69	2400	5.648	3.339	22.471
3.260	1.038	0.088285	1.703725	2.930473	0.021154	0.125224	16.89	98.34	69.00	278.22	2400	5.887	3.574	23.422
3.360	1.070	0.097258	1.762326	3.000005	0.021938	0.118307	18.54	98.21	64.00	286.76	2400	6.089	3.937	24.227
3.460	1.101	0.106128	1.823110	3.068411	0.022574	0.112079	20.14	98.08	64.00	295.29	2400	6.299	4.297	25.063
3.560	1.133	0.114912	1.886255	3.135667	0.023089	0.106461	21.69	97.96	64.00	303.82	2400	6.517	4.652	25.931
3.660	1.165	0.123610	1.951811	3.201795	0.023498	0.101376	23.18	97.83	64.00	312.36	2400	6.744	5.004	26.832
3.760	1.197	0.131945	2.019822	3.266820	0.023766	0.096759	24.56	97.72	59.00	320.89	2400	6.979	5.342	27.767
3.860	1.229	0.140202	2.089765	3.330948	0.023962	0.092529	25.90	97.61	59.00	329.43	2400	7.220	5.676	28.729
3.960	1.261	0.148356	2.162005	3.394094	0.024091	0.088657	27.17	97.50	59.00	337.96	2400	7.470	6.006	29.722
4.060	1.292	0.156412	2.236605	3.456274	0.024163	0.085104	28.39	97.40	59.00	346.50	2400	7.728	6.332	30.748
4.160	1.324	0.164010	2.313545	3.517529	0.024134	0.081835	29.49	97.30	53.00	355.03	2400	7.994	6.640	31.805
4.260	1.356	0.171604	2.392474	3.577999	0.024080	0.078806	30.56	97.20	53.00	363.57	2400	8.266	6.947	32.890
4.360	1.388	0.179093	2.473686	3.637622	0.023991	0.076002	31.57	97.11	53.00	372.10	2400	8.547	7.250	34.007
4.460	1.420	0.186480	2.557253	3.696410	0.023873	0.073402	32.52	97.02	53.00	380.63	2400	8.836	7.550	35.156
4.560	1.451	0.193316	2.643052	3.754427	0.023674	0.070983	33.35	96.94	47.00	389.17	2400	9.132	7.826	36.335
4.660	1.483	0.200224	2.730835	3.811771	0.023479	0.068719	34.17	96.85	47.00	397.70	2400	9.435	8.106	37.542
4.760	1.515	0.207012	2.820519	3.868487	0.023266	0.066596	34.94	96.77	47.00	406.24	2400	9.745	8.381	38.775
4.860	1.547	0.213705	2.912487	3.924492	0.023040	0.064609	35.66	96.69	47.00	414.77	2400	10.063	8.652	40.039
4.960	1.579	0.219764	3.006516	3.979871	0.022747	0.062742	36.26	96.62	40.00	423.31	2400	10.388	8.897	41.332
5.060	1.611	0.225716	3.102720	4.034614	0.022449	0.060986	36.81	96.55	31.00	431.84	2400	10.720	9.138	42.654
5.160	1.642	0.231573	3.200381	4.088927	0.022148	0.059319	37.34	96.48	31.00	440.38	2400	11.058	9.375	43.997
5.260	1.674	0.235719	3.300136	4.142661	0.021695	0.057745	37.57	96.44	0.00	448.91	2400	11.402	9.543	45.368
5.360	1.706	0.240159	3.399043	4.196560	0.021287	0.056209	37.87	96.39	0.00	457.44	2400	11.744	9.723	46.728
5.460	1.738	0.244438	3.498884	4.250174	0.020880	0.054738	38.14	96.35	0.00	465.98	2400	12.089	9.896	48.101
5.560	1.770	0.248555	3.599580	4.303526	0.020475	0.053330	38.39	96.30	0.00	474.51	2400	12.437	10.063	49.485
5.660	1.802	0.252504	3.700776	4.356702	0.020071	0.051974	38.62	96.26	0.00	483.05	2400	12.787	10.222	50.876
5.760	1.833	0.256309	3.802626	4.409667	0.019672	0.050671	38.82	96.22	0.00	491.58	2400	13.138	10.377	52.276
5.860	1.865	0.259990	3.905357	4.462369	0.019280	0.049421	39.01	96.18	0.00	500.12	2400	13.493	10.526	53.689
5.960	1.897	0.263552	4.008942	4.514819	0.018894	0.048220	39.18	96.15	0.00	508.65	2400	13.851	10.670	55.113
6.060	1.929	0.266995	4.113437	4.567007	0.018514	0.047068	39.33	96.11	0.00	517.18	2400	14.212	10.809	56.549
6.160	1.961	0.270331	4.218771	4.618953	0.018142	0.045960	39.47	96.08	0.00	525.72	2400	14.576	10.944	57.997
6.260	1.993	0.273563	4.325114	4.670623	0.017777	0.044897	39.59	96.05	0.00	534.25	2400	14.944	11.075	59.459
6.360	2.024	0.276695	4.432321	4.722053	0.017419	0.043873	39.70	96.01	0.00	542.79	2400	15.314	11.202	60.933
6.460	2.056	0.279732	4.540394	4.773246	0.017069	0.042888	39.80	95.98	0.00	551.32	2400	15.688	11.325	62.419
6.560	2.088	0.282664	4.649427	4.824185	0.016726	0.041940	39.88	95.95	0.00	559.86	2400	16.064	11.443	63.918
6.660	2.120	0.285480	4.758764	4.875009	0.016390	0.041022	39.95	95.93	0.00	568.39	2400	16.442	11.557	65.421
6.760	2.152	0.288202	4.868712	4.925654	0.016060	0.040134	40.02	95.90	0.00	576.93	2400	16.822	11.668	66.932
6.860	2.184	0.290849	4.979739	4.976028	0.015738	0.039280	40.07	95.87	0.00	585.46	2400	17.205	11.775	68.458
6.960	2.215	0.293417	5.091704	5.026163	0.015424	0.038457	40.11	95.85	0.00	593.99	2400	17.592	11.879	69.998
7.060	2.247	0.295908	5.204471	5.076091	0.015118	0.037662	40.14	95.82	0.00	602.53	2400	17.982	11.980	71.548
7.160	2.279	0.298330	5.318248	5.125772	0.014819	0.036895	40.16	95.80	0.00	611.06	2400	18.375	12.078	73.112
7.260	2.311	0.300669	5.433062	5.175207	0.014526	0.036156	40.18	95.77	0.00	619.60	2400	18.772	12.172	74.691
7.360	2.343	0.302944	5.548758	5.224427	0.014241	0.035441	40.18	95.75	0.00	628.13	2400	19.172	12.264	76.281
7.460	2.375	0.305138	5.665511	5.273404	0.013962	0.034751	40.18	95.73	0.00	636.67	2400	19.575	12.353	77.886
7.480	2.381	0.305571	5.689018	5.283164	0.013907	0.034616	40.18	95.73	0.00	638.37	2400	19.656	12.371	78.209
7.500	2.387	0.305999	5.712495	5.292929	0.013853	0.034481	40.17	95.72	0.00	640.08	2400	19.737	12.388	78.532
7.520	2.394	0.306425	5.736049	5.302678	0.013798	0.034348	40.17	95.72	0.00	641.79	2400	19.819	12.405	78.856
7.540	2.400	0.306849	5.759577	5.312430	0.013744	0.034215	40.17	95.71	0.00	643.49	2400	19.900	12.423	79.179
7.560	2.406	0.307265	5.783243	5.322155	0.013690	0.034084	40.17	95.71	0.00	645.20	2400	19.982	12.439	79.505
7.580	2.413	0.307682	5.806862	5.331887	0.013637	0.033953	40.16	95.71	0.00	646.91	2400	20.063	12.456	79.829
7.600	2.419	0.308095	5.830534	5.341607	0.013583	0.033823	40.16	95.70	0.00	648.61	2400	20.145	12.473	80.155
7.620	2.426	0.308505	5.854231	5.351321	0.013530	0.033693	40.16	95.70	0.00	650.32	2400	20.227	12.490	80.480
7.640	2.432	0.308906	5.877973	5.361025	0.013477	0.033565	40.15	95.69	0.00	652.03	2400	20.309	12.506	80.807
7.660	2.438	0.309303	5.901562	5.370755	0.013424	0.033436	40.15	95.69	0.00	653.74	2400	20.390	12.522	81.131
7.680	2.445	0.309695	5.925241	5.380468	0.013371	0.033309	40.14	95.69	0.00	655.44	2400	20.472	12.538	81.457
7.700	2.451	0.310088	5.948954	5.390172	0.013318	0.033182	40.14	95.68	0.00	657.15	2400	20.554	12.554	81.783
7.720	2.457	0.310475	5.972655	5.399876	0.013266	0.033056	40.13	95.68	0.00	658.86	2400	20.636	12.569	82.109
7.740	2.464	0.310860	5.996365	5.409578	0.013214	0.032931	40.13	95.67	0.00	660.56	2400	20.718	12.585	82.434
7.760	2.470	0.311242	6.020191	5.419256	0.013162	0.032807	40.12	95.67	0.00	662.27	2400	20.800	12.600	82.762
7.780	2.476	0.311624	6.043989	5.428938	0.013110	0.032683	40.11	95.67	0.00	663.98	2400	20.883	12.616	83.089
7.800	2.483	0.312004	6.067783	5.438619	0.013059	0.032560	40.11	95.66	0.00	665.68	2400	20.965	12.631	83.416
7.820	2.489	0.312382	6.091737	5.448269	0.013008	0.032439	40.10	95.66	0.00	667.39	2400	21.048	12.647	83.746
7.840	2.496	0.312754	6.115674	5.457920	0.012957	0.032317	40.09	95.66	0.00	669.10	2400	21.130	12.662	84.075
7.860	2.502	0.313128	6.139709	5.467553	0.012907	0.032197	40.09	95.65	0.00	670.80	2400	21.213	12.677	84.405
7.880	2.508	0.313495	6.163752	5.477182	0.012856	0.032078	40.08	95.65	0.00	672.51	2400	21.296	12.692	84.736
7.900	2.515	0.313863	6.187739	5.486820	0.012806	0.031959	40.07	95.65	0.00	674.22	2400	21.379	12.707	85.065
7.920	2.521	0.314226	6.211827	5.496438	0.012756	0.031841	40.06	95.64	0.00	675.92	2400	21.462	12.721	85.397
